 Al5Lu3O12 Density=2.699
 Energy(eV), Delta, Beta
  30.  0.0143646542  0.102590807
  30.5225792  0.016259931  0.11084193
  31.054266  0.0199829396  0.115458682
  31.5952091  0.0253627226  0.117289759
  32.1455765  0.0307152364  0.116776757
  32.7055321  0.0347547308  0.114936881
  33.2752457  0.0380458273  0.112765536
  33.8548775  0.0406631157  0.110233873
  34.4446106  0.0427443199  0.107763261
  35.0446129  0.0447562523  0.105649099
  35.6550674  0.0471152738  0.103485331
  36.2761536  0.0498303548  0.100623421
  36.908062  0.051913701  0.0969093069
  37.5509758  0.0533928983  0.093277432
  38.2050934  0.0548009165  0.0894791707
  38.8706017  0.0556112379  0.0852262005
  39.5477028  0.0556253493  0.0813134685
  40.2365952  0.0554475673  0.0778126046
  40.9374924  0.0551742762  0.0744788796
  41.6506004  0.0547801815  0.0712889284
  42.3761292  0.0542893298  0.0682421774
  43.1142921  0.0537359975  0.0653200448
  43.8653145  0.0531219728  0.062423639
  44.6294212  0.052337978  0.0596108101
  45.4068375  0.0514147356  0.0569473021
  46.1977959  0.0504008085  0.0544774942
  47.0025291  0.0493986607  0.0521608964
  47.8212852  0.048355598  0.0499991439
  48.6543007  0.0473942868  0.0480025895
  49.5018311  0.0465228744  0.0460107364
  50.3641205  0.0456701666  0.044003088
  51.2414322  0.0447261967  0.0419907644
  52.1340256  0.0436905585  0.0400506556
  53.0421677  0.0425987579  0.0382001847
  53.9661293  0.041449368  0.0364714041
  54.9061813  0.0403217077  0.0348505639
  55.8626137  0.0392020606  0.0333020091
  56.8357048  0.0380826965  0.0318225212
  57.8257484  0.0369631276  0.0304091834
  58.8330345  0.0358414091  0.0290588159
  59.8578682  0.0347139426  0.0277747791
  60.9005585  0.0335907526  0.0265598465
  61.9614029  0.0324779637  0.0254028589
  63.0407295  0.0313693471  0.0242966507
  64.1388626  0.030252872  0.0232280046
  65.2561188  0.0291173775  0.0222047754
  66.3928375  0.0279392451  0.0212276615
  67.5493622  0.0267273411  0.0203664266
  68.7260284  0.0255005527  0.0195507929
  69.9231949  0.0241867639  0.0187699087
  71.1412125  0.0225956347  0.0180237349
  72.3804474  0.0195358507  0.0173045043
  73.6412659  0.020147128  0.020129472
  74.9240494  0.020460384  0.0195625722
  76.2291794  0.0202261135  0.0190260485
  77.557045  0.0198687725  0.0185001604
  78.9080353  0.0194444712  0.0179793276
  80.2825623  0.0189850107  0.0174829736
  81.6810379  0.0185085088  0.0170029346
  83.1038666  0.0180005729  0.0165472012
  84.5514908  0.0174531881  0.0161951277
  86.0243225  0.0170465317  0.0159215331
  87.5228119  0.0167298615  0.0155893946
  89.0474014  0.0164165813  0.015181276
  90.5985489  0.0160670187  0.0147663262
  92.1767197  0.0157114621  0.0143667571
  93.7823792  0.0153643358  0.013978716
  95.416008  0.0150225302  0.0135919629
  97.0780945  0.0146797337  0.0132118976
  98.7691345  0.0143463071  0.012840136
  100.489624  0.0140025439  0.0124678323
  102.240089  0.0136599811  0.0121219968
  104.021049  0.0133306757  0.0117894579
  105.833031  0.0130062047  0.0114594596
  107.676582  0.0126765352  0.0111440411
  109.552238  0.0123543814  0.0108568054
  111.460571  0.0120495604  0.0105838608
  113.402138  0.0117588481  0.0103212958
  115.377533  0.0114797857  0.0100702606
  117.387337  0.0112152714  0.00983231794
  119.432152  0.0109693818  0.00960453972
  121.512581  0.0107440865  0.00938507635
  123.62925  0.0105515076  0.00917358138
  125.782799  0.010386724  0.00891740713
  127.973854  0.0102017252  0.00864002015
  130.203079  0.00999774039  0.00837011449
  132.47113  0.00978929363  0.00811028015
  134.778702  0.00957980566  0.00786031969
  137.12645  0.00937294867  0.00762122683
  139.515106  0.00917030033  0.00739064347
  141.945374  0.0089727873  0.00716832606
  144.417969  0.00878297072  0.00695396075
  146.93364  0.00860218331  0.00674232049
  149.493134  0.00842607021  0.00653087767
  152.097198  0.00825211778  0.00631835591
  154.746643  0.00807632599  0.00610871753
  157.44223  0.00790054258  0.00590671506
  160.184769  0.00772793172  0.00571023347
  162.975098  0.00755677  0.00551907998
  165.814026  0.0073876977  0.00533478428
  168.702393  0.00722246803  0.00515722623
  171.641083  0.00706203701  0.00498614833
  174.630966  0.00690821139  0.00482160458
  177.672913  0.00676621078  0.00466073817
  180.767868  0.00663524307  0.00448878761
  183.916733  0.00649497844  0.0043056556
  187.120438  0.00634089718  0.00412799977
  190.379959  0.00618000655  0.00395981921
  193.696259  0.00601781579  0.00380621408
  197.070328  0.00585913658  0.00366492057
  200.503159  0.00570722157  0.00353294704
  203.995804  0.00556220999  0.00340721873
  207.549271  0.00542461919  0.00328757125
  211.164673  0.00530013908  0.00317179156
  214.843018  0.00517776422  0.00304126111
  218.585449  0.0050512827  0.00291230343
  222.393066  0.00491897529  0.00278725126
  226.266998  0.00478495518  0.00267041009
  230.208435  0.00465332251  0.00256104954
  234.218521  0.00452475855  0.00245650602
  238.298462  0.00439806329  0.00235674111
  242.449463  0.00427392591  0.00226217578
  246.672791  0.00415315293  0.00217204238
  250.969681  0.00403551757  0.00208571786
  255.3414  0.00392080378  0.00200299872
  259.789307  0.00380909489  0.00192381605
  264.314667  0.00370116695  0.0018478625
  268.918854  0.00359656336  0.00177347567
  273.603241  0.00349261612  0.00169908651
  278.369232  0.00338834687  0.0016294251
  283.218231  0.00328671001  0.00156426337
  288.151733  0.00318807596  0.00150266394
  293.171143  0.00309230271  0.00144388771
  298.278015  0.00299923168  0.00138775329
  303.473816  0.00290877931  0.00133411516
  308.760132  0.00282084825  0.00128281279
  314.13855  0.00273537752  0.00123378064
  319.610657  0.00265234406  0.00118690578
  325.17807  0.00257170619  0.00114206574
  330.842468  0.00249338802  0.00109916157
  336.60553  0.00241736602  0.0010581055
  342.468964  0.00234358688  0.00101880624
  348.43457  0.00227197073  0.000981149846
  354.504089  0.00220240024  0.000945089909
  360.679321  0.00213481672  0.000910824747
  366.962128  0.00206953823  0.000878401916
  373.35437  0.00200678548  0.000847374264
  379.857971  0.00194651552  0.000817568682
  386.474854  0.0018890046  0.000788612349
  393.20697  0.00183427683  0.000759928545
  400.056396  0.00178120041  0.000729711086
  407.025146  0.00172773656  0.000699332508
  414.115234  0.00167440239  0.000670203997
  421.328888  0.0016217482  0.00064231985
  428.668152  0.00156989309  0.000615633733
  436.135284  0.00151887548  0.000590022362
  443.732513  0.00146831071  0.000565376831
  451.462036  0.00141797995  0.000542307971
  459.326233  0.00136866444  0.000521153386
  467.327393  0.00132057432  0.000501432631
  475.467926  0.00127363438  0.000482680829
  483.750275  0.00122742471  0.000464677956
  492.17691  0.00118147652  0.000447388215
  500.750305  0.00113528175  0.000430789427
  509.473053  0.00108797534  0.000414801703
  518.347778  0.00103754993  0.000399162032
  527.377075  0.000978050171  0.000383247941
  536.563599  0.000840082823  0.00036664473
  545.910217  0.00072073139  0.000570222153
  555.419678  0.000897831691  0.000541747897
  565.094727  0.000916107965  0.000514567189
  574.938293  0.000915957033  0.000488753372
  584.953369  0.000907721173  0.000464294659
  595.142822  0.000895047968  0.000441100565
  605.509888  0.000879662635  0.000419091637
  616.057495  0.000862569606  0.00039820376
  626.788818  0.000844461785  0.000378353958
  637.707092  0.000825770374  0.00035919965
  648.815491  0.000806436234  0.000340522267
  660.117493  0.000786250166  0.000322543783
  671.616333  0.000765436329  0.000305668538
  683.31543  0.000744462188  0.000290359982
  695.218323  0.000724140846  0.000276215695
  707.328613  0.000704577717  0.000262594927
  719.64978  0.000685248873  0.000249157631
  732.185669  0.000665913103  0.00023623569
  744.93988  0.000646763889  0.000223992916
  757.91626  0.000627910485  0.000212388783
  771.118713  0.000609434326  0.000201356685
  784.551086  0.000591332908  0.000190772291
  798.217468  0.000573472644  0.000180624251
  812.121887  0.000555882929  0.000171010804
  826.268555  0.00053862395  0.000161914737
  840.661621  0.000521721086  0.000153314802
  855.30542  0.000505185162  0.000145211801
  870.204285  0.000489061465  0.000137575524
  885.362732  0.000473374414  0.000130362125
  900.785156  0.000458114548  0.000123529244
  916.476318  0.000443287514  0.000117057127
  932.440674  0.000428880652  0.000110859823
  948.683228  0.000414837326  0.000104936247
  965.208679  0.000401133002  9.9309269E-05
  982.021973  0.000387780368  9.39814636E-05
  999.128296  0.000374792668  8.89347648E-05
  1016.53247  0.000362178544  8.41502188E-05
  1034.23975  0.000349891285  7.95564702E-05
  1052.25549  0.000337920472  7.51891857E-05
  1070.58521  0.00032623834  7.10432796E-05
  1089.23413  0.000314854406  6.7126799E-05
  1108.20789  0.000303770095  6.34267853E-05
  1127.51208  0.000292979123  5.99307496E-05
  1147.15271  0.000282473804  5.66278068E-05
  1167.13525  0.000272246543  5.35079671E-05
  1187.46606  0.000262286572  5.05600437E-05
  1208.151  0.00025258353  4.77747526E-05
  1229.19629  0.000243124814  4.51432206E-05
  1250.60803  0.000233896761  4.26553743E-05
  1272.39282  0.000224879725  4.03045815E-05
  1294.55713  0.000216049739  3.8081751E-05
  1317.10754  0.000207393023  3.59822989E-05
  1340.05066  0.000198884183  3.39985454E-05
  1363.39343  0.000190489678  3.21241641E-05
  1387.14294  0.000182168224  3.0354051E-05
  1411.30615  0.000173863053  2.86816139E-05
  1435.89014  0.00016548959  2.71011977E-05
  1460.90234  0.000156918701  2.56050462E-05
  1486.35034  0.000147917061  2.41847083E-05
  1512.2417  0.000137987881  2.28200006E-05
  1538.58398  0.00012568169  2.15226482E-05
  1565.38513  0.000107234511  3.04924706E-05
  1592.6532  9.25347267E-05  5.85925882E-05
  1620.39624  0.000106830703  5.6107343E-05
  1648.62244  0.000106123713  6.3912441E-05
  1677.34033  0.000112402653  6.72087481E-05
  1706.55859  0.000117444564  6.32766605E-05
  1736.28577  0.000118674099  5.9570255E-05
  1766.53088  0.000118450633  5.60737535E-05
  1797.30261  0.000117382231  5.27799239E-05
  1828.6106  0.000115762741  4.96784123E-05
  1860.46387  0.000113760732  4.67592254E-05
  1892.87195  0.000111483729  4.40119875E-05
  1925.84448  0.000109002169  4.14264978E-05
  1959.39148  0.000106358581  3.89933266E-05
  1993.52283  0.000103536375  3.67035027E-05
  2028.24878  0.000100335259  3.51235576E-05
  2063.57959  9.80650584E-05  3.30564581E-05
  2099.52588  9.53099443E-05  3.11102194E-05
  2136.09814  9.2431379E-05  2.92784152E-05
  2173.30762  8.94144105E-05  2.75540169E-05
  2211.16528  8.61070293E-05  2.59310909E-05
  2249.68262  7.83634241E-05  2.44032144E-05
  2288.87061  7.96557943E-05  2.73994483E-05
  2328.74097  7.94054504E-05  2.57994343E-05
  2369.30615  7.77297828E-05  2.42928654E-05
  2410.57812  7.57929593E-05  2.2874483E-05
  2452.56885  7.37531009E-05  2.15395557E-05
  2495.29102  7.1442686E-05  2.03309737E-05
  2538.75757  6.9469148E-05  1.97953523E-05
  2582.98096  6.77331409E-05  1.86701363E-05
  2627.9751  6.58653953E-05  1.76068679E-05
  2673.75244  6.39854625E-05  1.66020927E-05
  2720.32764  6.21174549E-05  1.56526894E-05
  2767.71411  6.0272585E-05  1.47560941E-05
  2815.92578  5.84575755E-05  1.390955E-05
  2864.97754  5.66765484E-05  1.31103589E-05
  2914.88354  5.4932294E-05  1.23557465E-05
  2965.65894  5.32264567E-05  1.16434476E-05
  3017.31885  5.15602369E-05  1.09712882E-05
  3069.87866  4.99345915E-05  1.03371831E-05
  3123.354  4.83501499E-05  9.73891292E-06
  3177.76074  4.68061953E-05  9.17417037E-06
  3233.11548  4.53035645E-05  8.64169851E-06
  3289.43433  4.38418465E-05  8.13915631E-06
  3346.73413  4.24206373E-05  7.66556423E-06
  3405.03198  4.10398061E-05  7.21903598E-06
  3464.3457  3.96987052E-05  6.79788309E-06
  3524.69238  3.83965453E-05  6.40074768E-06
  3586.09009  3.71327114E-05  6.0265611E-06
  3648.55762  3.59066435E-05  5.67374673E-06
  3712.11328  3.47175337E-05  5.34138144E-06
  3776.77588  3.35645309E-05  5.02788816E-06
  3842.56494  3.24467474E-05  4.73266618E-06
  3909.5  3.13636374E-05  4.45443357E-06
  3977.60107  3.03140259E-05  4.19230173E-06
  4046.88818  2.92972909E-05  3.94533663E-06
  4117.38232  2.83126101E-05  3.71271221E-06
  4189.10498  2.73591249E-05  3.49360812E-06
  4262.07617  2.64360442E-05  3.28727037E-06
  4336.31885  2.55425493E-05  3.09297047E-06
  4411.85498  2.46777981E-05  2.90997991E-06
  4488.70654  2.38410066E-05  2.73768865E-06
  4566.89697  2.30313599E-05  2.57545571E-06
  4646.44971  2.22480467E-05  2.42273995E-06
  4727.3877  2.14903521E-05  2.27898227E-06
  4809.73584  2.07574885E-05  2.14363899E-06
  4893.51855  2.00487011E-05  2.01626131E-06
  4978.76025  1.93632823E-05  1.8963558E-06
  5065.48682  1.8700448E-05  1.78351593E-06
  5153.72461  1.80596016E-05  1.67732037E-06
  5243.49951  1.74400266E-05  1.57737088E-06
  5334.83789  1.68410279E-05  1.48331526E-06
  5427.76709  1.6261989E-05  1.39482427E-06
  5522.31543  1.5702286E-05  1.31156094E-06
  5618.51074  1.51612621E-05  1.23321956E-06
  5716.38135  1.46383254E-05  1.15951582E-06
  5815.95752  1.41329028E-05  1.09017503E-06
  5917.26758  1.36444041E-05  1.02494107E-06
  6020.34277  1.31722791E-05  9.63568823E-07
  6125.21289  1.27159738E-05  9.05834895E-07
  6231.91016  1.22749225E-05  8.51527204E-07
  6340.46631  1.18486532E-05  8.0045595E-07
  6450.91309  1.14366485E-05  7.52396431E-07
  6563.28418  1.10384244E-05  7.07211939E-07
  6677.6123  1.06535008E-05  6.64708807E-07
  6793.93213  1.02814147E-05  6.24735208E-07
  6912.27832  9.92169589E-06  5.8714437E-07
  7032.68555  9.57389329E-06  5.51794756E-07
  7155.19043  9.23757761E-06  5.18551417E-07
  7279.82959  8.91229502E-06  4.87296347E-07
  7406.63965  8.59762167E-06  4.57888348E-07
  7535.6582  8.29308556E-06  4.30248946E-07
  7666.9248  7.99827649E-06  4.04259225E-07
  7800.47803  7.71266332E-06  3.79817578E-07
  7936.35693  7.43574492E-06  3.56830753E-07
  8074.60352  7.1670047E-06  3.35224428E-07
  8215.25781  6.90583192E-06  3.14913706E-07
  8358.3623  6.65141761E-06  2.9581696E-07
  8503.95996  6.40272719E-06  2.77863592E-07
  8652.09277  6.15814224E-06  2.6097905E-07
  8802.80762  5.914741E-06  2.45108936E-07
  8956.14746  5.665765E-06  2.30188931E-07
  9112.15723  5.38485574E-06  2.16165049E-07
  9270.88574  4.79936944E-06  5.20663491E-07
  9432.37793  5.0686358E-06  4.87060106E-07
  9596.68359  4.9564228E-06  4.55635501E-07
  9763.85156  4.81447523E-06  4.26248903E-07
  9933.93262  4.66090296E-06  3.98750672E-07
  10106.9746  4.49593244E-06  3.73023312E-07
  10283.0322  4.20528431E-06  3.4895794E-07
  10462.1562  4.18261607E-06  4.54024814E-07
  10644.4004  4.08889355E-06  4.24576086E-07
  10829.8184  3.89785373E-06  3.97036388E-07
  11018.4678  3.85458497E-06  4.18948588E-07
  11210.4023  3.75414038E-06  3.95087767E-07
  11405.6807  3.64607899E-06  3.72490064E-07
  11604.3604  3.53733117E-06  3.51100397E-07
  11806.501  3.42951989E-06  3.30861695E-07
  12012.1631  3.32337913E-06  3.11718424E-07
  12221.4062  3.21928246E-06  2.93622321E-07
  12434.2959  3.11746726E-06  2.7650924E-07
  12650.8936  3.01810246E-06  2.60347321E-07
  12871.2646  2.92127493E-06  2.45082646E-07
  13095.4736  2.82702354E-06  2.30669414E-07
  13323.5879  2.73535852E-06  2.17063302E-07
  13555.6768  2.64627465E-06  2.0422533E-07
  13791.8076  2.55975283E-06  1.92115095E-07
  14032.0527  2.47576349E-06  1.8069349E-07
  14276.4814  2.3942705E-06  1.69924931E-07
  14525.1689  2.31523472E-06  1.59773506E-07
  14778.1885  2.23860229E-06  1.50208564E-07
  15035.6152  2.16432818E-06  1.4119523E-07
  15297.5264  2.09235895E-06  1.32704741E-07
  15564.  2.02263459E-06  1.24707483E-07
  15835.1152  1.95510825E-06  1.17177549E-07
  16110.9521  1.8897224E-06  1.10089573E-07
  16391.5938  1.82642509E-06  1.03418735E-07
  16677.125  1.76515687E-06  9.71408838E-08
  16967.6309  1.70586304E-06  9.12342131E-08
  17263.1973  1.64848757E-06  8.5677506E-08
  17563.9102  1.59297588E-06  8.04520397E-08
  17869.8613  1.53927465E-06  7.5537713E-08
  18181.1445  1.48732965E-06  7.09169399E-08
  18497.8477  1.43709212E-06  6.65732571E-08
  18820.0684  1.38850646E-06  6.24898888E-08
  19147.9023  1.34152378E-06  5.86523221E-08
  19481.4453  1.296096E-06  5.50458736E-08
  19820.8008  1.25217434E-06  5.1657544E-08
  20166.0664  1.20971231E-06  4.84738791E-08
  20517.3477  1.16866534E-06  4.54833149E-08
  20874.7461  1.12898817E-06  4.26743263E-08
  21238.3711  1.09063774E-06  4.00366069E-08
  21608.3301  1.05357151E-06  3.75597438E-08
  21984.7344  1.01774742E-06  3.52341019E-08
  22367.6934  9.83127848E-07  3.30505721E-08
  22757.3242  9.49671744E-07  3.10009014E-08
  23153.7422  9.17341708E-07  2.90769382E-08
  23557.0664  8.86102384E-07  2.72712413E-08
  23967.4141  8.5591563E-07  2.55765364E-08
  24384.9121  8.26748987E-07  2.39861997E-08
  24809.6816  7.98568863E-07  2.24939445E-08
  25241.8516  7.71340865E-07  2.10938698E-08
  25681.5469  7.45036402E-07  1.97802823E-08
  26128.9023  7.19623245E-07  1.8547949E-08
  26584.0527  6.95071378E-07  1.73919581E-08
  27047.1289  6.71353064E-07  1.63077072E-08
  27518.2754  6.48439482E-07  1.52907802E-08
  27997.625  6.26304541E-07  1.43369885E-08
  28485.3262  6.04922093E-07  1.34425697E-08
  28981.5215  5.84266672E-07  1.26037367E-08
  29486.3613  5.64313893E-07  1.18172085E-08
  29999.9961  5.45038404E-07  1.1079706E-08
